index	Potential [V]	Disk Current density[mA/cm2]	Ring Current density[mA/cm2]
60	0.11089069371222862	-1.3237762451171877	0.0527191162109375
61	0.11134218631243736	-1.323516845703125	0.0524749755859375
62	0.11180695882911582	-1.3238067626953125	0.052764892578125
63	0.11225771365618736	-1.323516845703125	0.0526275634765625
64	0.11270957514296473	-1.323272705078125	0.0527191162109375
65	0.11315627221778166	-1.32281494140625	0.0527191162109375
66	0.11361366700308806	-1.3227996826171875	0.05268859863281251
67	0.11406995512868864	-1.3227386474609375	0.05278015136718749
68	0.11452329216174041	-1.3225555419921875	0.0528564453125
69	0.11497330921567477	-1.322235107421875	0.0527191162109375
70	0.11543291732039279	-1.3223114013671877	0.052886962890625
71	0.11590396090873745	-1.3228607177734373	0.05281066894531251
72	0.11635397796267181	-1.322540283203125	0.0529327392578125
73	0.11679735505837133	-1.3219451904296875	0.052642822265625
74	0.11723962549436501	-1.3213043212890623	0.05303955078125
75	0.11769259364084819	-1.32110595703125	0.052642822265625
76	0.11814076626193952	-1.320709228515625	0.05305480957031251
77	0.11859816104724591	-1.3206939697265625	0.05282592773437499
78	0.1190537113997093	-1.3206024169921875	0.0531005859375
79	0.11951258173129012	-1.320648193359375	0.05293273925781251
80	0.1199681320837535	-1.320556640625	0.05307006835937499
81	0.12042073134366807	-1.3203430175781252	0.052886962890625
82	0.12086041957368154	-1.3195953369140625	0.0531005859375
83	0.12132408543065418	-1.3198394775390625	0.0530242919921875
84	0.1217689380726281	-1.3193054199218752	0.0531158447265625
85	0.1222429327535216	-1.319976806640625	0.0530853271484375
86	0.12268151432382927	-1.319183349609375	0.0531158447265625
87	0.12316104230325182	-1.3200836181640625	0.053253173828125
88	0.12359777944071648	-1.3192138671875002	0.05302429199218749
89	0.12406107641112052	-1.3194427490234375	0.053253173828125
90	0.12450334684711421	-1.3188018798828123	0.0531158447265625
91	0.12495447056075437	-1.3185272216796875	0.05328369140625
92	0.12541075868635496	-1.3184661865234375	0.0531768798828125
93	0.12586520237911253	-1.318328857421875	0.0533905029296875
94	0.12632997489579098	-1.3186187744140625	0.0532073974609375
95	0.12678404970197996	-1.3184661865234375	0.053314208984375
96	0.12723960005444335	-1.3183746337890627	0.0532989501953125
97	0.12770068370543577	-1.318511962890625	0.053314208984375
98	0.12814369191456668	-1.317901611328125	0.05316162109375
99	0.12859592228791264	-1.3176727294921875	0.053466796875
100	0.1290481526612586	-1.31744384765625	0.0531005859375
101	0.12951108074509404	-1.317657470703125	0.0535736083984375
102	0.12996294223187138	-1.317413330078125	0.053375244140625
103	0.1304044748947279	-1.3167419433593752	0.05354309082031251
104	0.13085412306209365	-1.3164062500000002	0.0534210205078125
105	0.13131004230112564	-1.3163299560546875	0.0534515380859375
106	0.1317633793341774	-1.3161468505859375	0.05339050292968749
107	0.13220896974928853	-1.315643310546875	0.053466796875
108	0.13266968451371233	-1.315765380859375	0.0535736083984375
109	0.13312007045421528	-1.315460205078125	0.0535736083984375
110	0.1335844740843251	-1.31573486328125	0.0536041259765625
111	0.13403264670541648	-1.315338134765625	0.053558349609375
112	0.13449114815042867	-1.31536865234375	0.0536346435546875
113	0.1349507562551467	-1.3154449462890625	0.053466796875
114	0.13541331545241353	-1.315643310546875	0.0537109375
115	0.1358537414555642	-1.3149261474609375	0.053558349609375
116	0.13631851397224265	-1.315216064453125	0.0538787841796875
117	0.1367707443455886	-1.3149871826171875	0.0534515380859375
118	0.13722518803834619	-1.3148498535156248	0.05386352539062501
119	0.13767741841169215	-1.3146209716796875	0.0537261962890625
120	0.13813923983582177	-1.314788818359375	0.0538177490234375
121	0.13859368352857937	-1.3146514892578125	0.05378723144531251
122	0.13905329163329738	-1.3147277832031252	0.0539703369140625
123	0.13951917080968163	-1.3150634765624998	0.05377197265625
124	0.13997213895616478	-1.3148651123046875	0.0540618896484375
125	0.14041920491755033	-1.3144226074218752	0.053802490234375
126	0.14087918190883694	-1.3145141601562502	0.054046630859375
127	0.14134063444639797	-1.314666748046875	0.05389404296875
128	0.1417928648197439	-1.3144378662109373	0.0540618896484375
129	0.1422439885333841	-1.3141632080078127	0.0539398193359375
130	0.1426928989276126	-1.3137969970703125	0.0540771484375
131	0.143146604847233	-1.313629150390625	0.05401611328125
132	0.14360104853999056	-1.3134918212890625	0.05403137207031251
133	0.14406028775813998	-1.3135528564453125	0.054046630859375
134	0.14450809149266272	-1.313140869140625	0.05401611328125
135	0.1449640107316947	-1.3130645751953125	0.0540771484375
136	0.14541439667219766	-1.3127593994140625	0.0540771484375
137	0.1458780625291703	-1.3130035400390625	0.0540618896484375
138	0.14632512849055582	-1.31256103515625	0.0541534423828125
139	0.14678362993556804	-1.3125915527343752	0.05426025390625
140	0.14723512253577678	-1.3123321533203125	0.05419921875
141	0.1476818196105937	-1.3118743896484375	0.0542144775390625
142	0.14812593447943043	-1.3113098144531252	0.0540313720703125
143	0.14858074705875662	-1.311187744140625	0.0541839599609375
144	0.14902744413357352	-1.3107299804687498	0.05410766601562501
145	0.14947635452780209	-1.31036376953125	0.054290771484375
146	0.14991788719065857	-1.3096923828125	0.05412292480468749
147	0.15037638863567077	-1.309722900390625	0.0543060302734375
148	0.1508249301433307	-1.3093414306640625	0.0543060302734375
149	0.15128453824804872	-1.309417724609375	0.0543212890625
150	0.15173234198257146	-1.3090057373046875	0.05419921875
151	0.15219969670523012	-1.3094024658203125	0.0544281005859375
152	0.15264971375916447	-1.30908203125	0.0542755126953125
153	0.15311669959525454	-1.3094635009765625	0.05447387695312501
154	0.1535715121745807	-1.3093414306640625	0.05438232421875
155	0.15402558698076968	-1.3091888427734375	0.0547027587890625
156	0.15449220393029114	-1.3095550537109375	0.054443359375
157	0.15495365646785217	-1.3097076416015625	0.0545196533203125
158	0.15540810016060974	-1.3095703125	0.054534912109375
159	0.1558603305339557	-1.3093414306640625	0.0546417236328125
160	0.15631956975210512	-1.3094024658203125	0.054443359375
161	0.15676663571349064	-1.3089599609375	0.054534912109375
162	0.15722218606595403	-1.308868408203125	0.05459594726562501
163	0.15766519427508494	-1.308258056640625	0.05450439453125
164	0.15812443349323435	-1.308319091796875	0.05462646484375
165	0.15857924607256052	-1.3081970214843748	0.05462646484375
166	0.15904069861012154	-1.308349609375	0.0546875
167	0.15948924011778148	-1.3079681396484375	0.0545654296875
168	0.1599503237687739	-1.30810546875	0.0547943115234375
169	0.16040292302868847	-1.3078918457031252	0.05462646484375
170	0.16086917109164134	-1.3082427978515625	0.05471801757812501
171	0.16131623705302686	-1.30780029296875	0.0547027587890625
172	0.16177031185921584	-1.307647705078125	0.05459594726562501
173	0.1622074178832491	-1.306793212890625	0.0548095703125
174	0.16266997708051595	-1.3069915771484375	0.05485534667968749
175	0.1631078208776864	-1.3061676025390625	0.0547637939453125
176	0.16356779786897302	-1.3062591552734375	0.054779052734375
177	0.16401744603633878	-1.3059234619140625	0.0548248291015625
178	0.16447520970821378	-1.3059234619140625	0.05488586425781251
179	0.16491858680391328	-1.3053283691406252	0.0547332763671875
180	0.16536934163098482	-1.3050384521484375	0.0548858642578125
181	0.1658230475506052	-1.3048706054687502	0.0547943115234375
182	0.16627822901649997	-1.3047637939453123	0.0549468994140625
183	0.16673783712121798	-1.3048400878906248	0.0549163818359375
184	0.16719117415426976	-1.304656982421875	0.0549163818359375
185	0.1676537333515366	-1.3048553466796873	0.0549163818359375
186	0.16810043042635353	-1.3043975830078125	0.05508422851562501
187	0.16856298962362037	-1.3045959472656252	0.05496215820312501
188	0.16900157119392803	-1.303802490234375	0.054931640625
189	0.1694530637941368	-1.3035430908203125	0.0547943115234375
190	0.16989164536444445	-1.3027496337890625	0.0550537109375
191	0.17035936897367174	-1.30316162109375	0.05505371093749999
192	0.1708145504395665	-1.3030548095703125	0.055145263671875
193	0.17127674075026475	-1.3032379150390625	0.05509948730468749
194	0.1717297088967479	-1.30303955078125	0.0551605224609375
195	0.17219263698058335	-1.303253173828125	0.054901123046875
196	0.17263970294196887	-1.3028106689453125	0.0551605224609375
197	0.17310115547952992	-1.3029632568359377	0.05517578125
198	0.17355154142003285	-1.3026580810546875	0.05523681640625
199	0.17402221612180896	-1.3031921386718752	0.0552520751953125
200	0.1744714954026061	-1.3028411865234375	0.055145263671875
201	0.1749322101670299	-1.3029632568359375	0.0551910400390625
202	0.1753755872627294	-1.3023681640625	0.0552215576171875
203	0.1758322442748986	-1.3023223876953125	0.055145263671875
204	0.17627267027804927	-1.301605224609375	0.0549774169921875
205	0.17673043394992427	-1.3016052246093748	0.05541992187499999
206	0.17717934434415283	-1.301239013671875	0.0552520751953125
207	0.17763120583093017	-1.300994873046875	0.0552520751953125
208	0.1780767962460413	-1.3004913330078125	0.0553131103515625
209	0.17853935544330812	-1.3006896972656248	0.055419921875
210	0.17899601245547733	-1.3006439208984375	0.05517578124999999
211	0.17945340724078374	-1.300628662109375	0.05552673339843751
212	0.1799067442738355	-1.300445556640625	0.0552825927734375
213	0.1803645079457105	-1.300445556640625	0.055450439453125
214	0.18081120502052742	-1.29998779296875	0.0552825927734375
215	0.18126859980583382	-1.2999725341796875	0.05560302734375
216	0.18173411009564946	-1.30029296875	0.0553741455078125
217	0.18218744712870125	-1.3001098632812502	0.05552673339843751
218	0.1826396775020472	-1.2998809814453125	0.0553131103515625
219	0.18308563680372691	-1.2993927001953125	0.05554199218749999
220	0.18355704927864022	-1.299957275390625	0.0554656982421875
221	0.18400522189973156	-1.299560546875	0.0554962158203125
222	0.18445966559248914	-1.2994232177734377	0.055450439453125
223	0.18490414934789445	-1.2988739013671873	0.0554351806640625
224	0.18535859304065203	-1.298736572265625	0.0552978515625
225	0.1857990190438027	-1.2980194091796875	0.0554046630859375
226	0.18626084046793234	-1.2981872558593752	0.0554656982421875
227	0.1867104886352981	-1.2978515625	0.05552673339843751
228	0.18716603898776146	-1.297760009765625	0.05560302734375
229	0.1876119982894412	-1.297271728515625	0.05566406249999999
230	0.18807455748670804	-1.2974700927734375	0.05566406249999999
231	0.18852605008691678	-1.297210693359375	0.0556182861328125
232	0.18899340480957544	-1.297607421875	0.05589294433593751
233	0.1894448974097842	-1.2973480224609375	0.0552825927734375
234	0.1899015544219534	-1.29730224609375	0.05578613281249999
235	0.19035267813559356	-1.297027587890625	0.0555877685546875
236	0.19081228624031157	-1.2971038818359375	0.055755615234375
237	0.19127189434502959	-1.29718017578125	0.0557403564453125
238	0.19172596915121856	-1.297027587890625	0.055877685546875
239	0.19218041284397613	-1.2968902587890625	0.05572509765625
240	0.1926326432173221	-1.296661376953125	0.05584716796875
241	0.19307380699361	-1.2959747314453123	0.055755615234375
242	0.19352898845950478	-1.295867919921875	0.05577087402343751
243	0.19398306326569376	-1.2957153320312502	0.0559234619140625
244	0.19443713807188273	-1.2955627441406248	0.0558319091796875
245	0.1948941639706205	-1.2955322265624998	0.0559539794921875
246	0.19534491879769206	-1.2952423095703125	0.055999755859375
247	0.19580378912927288	-1.2952880859375002	0.05584716796875
248	0.19625712616232466	-1.2951049804687498	0.055999755859375
249	0.19671562760733685	-1.295135498046875	0.05572509765625
250	0.19716011136274217	-1.2945861816406248	0.05584716796875
251	0.19762931051824384	-1.2950592041015623	0.05584716796875
252	0.19807490093335495	-1.2945556640624998	0.05598449707031249
253	0.19853487792464158	-1.294647216796875	0.05610656738281249
254	0.1989952238024968	-1.2947540283203125	0.05596923828125
255	0.19944966749525436	-1.2946166992187498	0.0559844970703125
256	0.1999000534357573	-1.2943115234375	0.0561676025390625
257	0.20036556372557296	-1.2946319580078123	0.0561676025390625
258	0.2008266473765654	-1.294769287109375	0.05596923828125
259	0.20127592665736255	-1.2944183349609375	0.05610656738281249
260	0.20172225484561085	-1.2939453125	0.0560760498046875
261	0.20217964963091728	-1.2939300537109375	0.05615234374999999
262	0.20262671559230278	-1.293487548828125	0.05610656738281249
263	0.203087061470158	-1.2935943603515625	0.0561981201171875
264	0.20353375854497494	-1.2931365966796875	0.05603027343749999
265	0.20398119339292906	-1.2927093505859375	0.0561676025390625
266	0.20443563708568663	-1.292572021484375	0.05615234374999999
267	0.20489044966501282	-1.292449951171875	0.056243896484375
268	0.20533972894580999	-1.2920989990234375	0.0562286376953125
269	0.20579823039082218	-1.2921295166015627	0.056243896484375
270	0.20625304297014835	-1.2920074462890623	0.056182861328125
271	0.20671375773457218	-1.2921295166015627	0.0561370849609375
272	0.2071611925825263	-1.2917022705078127	0.056182861328125
273	0.2076171118215583	-1.2916259765625	0.05627441406249999
274	0.2080741377202961	-1.2915954589843752	0.05615234374999999
275	0.20852710586677925	-1.2913970947265625	0.05633544921875
276	0.20898007401326243	-1.29119873046875	0.056365966796875
277	0.20944263321052925	-1.2913970947265625	0.05621337890625
278	0.20988822362564039	-1.2908935546875	0.05635070800781249
279	0.21033233849447708	-1.2903289794921875	0.056365966796875
280	0.21079415991860673	-1.290496826171875	0.0563201904296875
281	0.21123901256058064	-1.2899627685546875	0.0561676025390625
282	0.21169087404735798	-1.2897186279296875	0.05645751953125
283	0.2121512199252132	-1.289825439453125	0.0563201904296875
284	0.2126244768329695	-1.29046630859375	0.05633544921875
285	0.21307449388690386	-1.2901458740234375	0.056182861328125
286	0.21352783091995564	-1.2899627685546875	0.056427001953125
287	0.21397784797388997	-1.289642333984375	0.05610656738281249
288	0.21441827397704066	-1.2889251708984373	0.0565032958984375
289	0.21487234878322964	-1.2887725830078125	0.056488037109375
290	0.2153267924759872	-1.28863525390625	0.056365966796875
291	0.21576389850002048	-1.28778076171875	0.056182861328125
292	0.21622203105846408	-1.2877960205078125	0.05650329589843751
293	0.21668754134827975	-1.288116455078125	0.05651855468749999
294	0.2171430917007431	-1.28802490234375	0.056549072265625
295	0.21760786421742156	-1.2883148193359375	0.0566558837890625
296	0.21806304568331636	-1.2882080078125002	0.0563507080078125
297	0.2185126938506821	-1.287872314453125	0.0565643310546875
298	0.21896381756432226	-1.28759765625	0.056549072265625
299	0.21942047457649144	-1.2875518798828125	0.05650329589843751
300	0.2198723360632688	-1.2873077392578125	0.05657958984375
301	0.22032345977690895	-1.2870330810546875	0.0565032958984375
302	0.22078269899505837	-1.2870941162109375	0.0565643310546875
303	0.22123566714154153	-1.286895751953125	0.0565643310546875
304	0.22169047972086772	-1.286773681640625	0.05659484863281249
305	0.22214160343450787	-1.2864990234375	0.05657958984375
306	0.22259567824069687	-1.286346435546875	0.056732177734375
307	0.22305049082002304	-1.286224365234375	0.056427001953125
308	0.22349423680229114	-1.28564453125	0.056488037109375
309	0.2239442538562255	-1.2853240966796875	0.0565948486328125
310	0.22438357319967037	-1.2845611572265625	0.0565338134765625
311	0.22484982126262323	-1.284912109375	0.056732177734375
312	0.22529910054342037	-1.2845611572265625	0.056732177734375
313	0.22576424194666742	-1.2848663330078125	0.0566864013671875
314	0.22621499677373896	-1.284576416015625	0.05664062499999999
315	0.22666722714708493	-1.2843475341796875	0.0567474365234375
316	0.22712462193239133	-1.284332275390625	0.056549072265625
317	0.22757537675946288	-1.2840423583984377	0.05671691894531249
318	0.22803830484329832	-1.2842559814453125	0.0568084716796875
319	0.22850197070027095	-1.2845001220703125	0.05676269531249999
320	0.2289516188676367	-1.2841644287109377	0.05676269531249999
321	0.22941417806490355	-1.28436279296875	0.056854248046875
322	0.2298656706651123	-1.2841033935546873	0.05670166015625
323	0.23031199885336062	-1.28363037109375	0.05670166015625
324	0.23076201590729498	-1.2833099365234375	0.0567779541015625
325	0.23121203296122933	-1.282989501953125	0.0566558837890625
326	0.23166241890173228	-1.282684326171875	0.0567779541015625
327	0.23211796925419564	-1.2825927734375	0.05659484863281249
328	0.23256319078273818	-1.282073974609375	0.05676269531249999
329	0.23301763447549576	-1.2819366455078127	0.0568084716796875
330	0.23347502926080216	-1.2819213867187502	0.056732177734375
331	0.2339213574490505	-1.2814483642578127	0.0568084716796875
332	0.2343846544194545	-1.28167724609375	0.05699157714843751
333	0.23483577813309467	-1.2814025878906248	0.05670166015625
334	0.23529280403183245	-1.2813720703124998	0.0570220947265625
335	0.23575573211566792	-1.2815856933593752	0.056976318359375
336	0.23621866019950333	-1.28179931640625	0.0569000244140625
337	0.2366675705937319	-1.2814331054687502	0.05694580078125
338	0.2371297609044301	-1.2816162109375002	0.05700683593749999
339	0.23758863123601093	-1.2816619873046877	0.056854248046875
340	0.23804307492876847	-1.2815246582031248	0.0570220947265625
341	0.2385015763737807	-1.28155517578125	0.056915283203125
342	0.23895565117996967	-1.281402587890625	0.0567474365234375
343	0.2394034549144924	-1.2809906005859375	0.0569610595703125
344	0.23985457862813256	-1.2807159423828125	0.05699157714843751
345	0.24031271118657616	-1.280731201171875	0.0570220947265625
346	0.24076678599276513	-1.28057861328125	0.056915283203125
347	0.2412204919123855	-1.2804107666015625	0.056915283203125
348	0.24167973113053492	-1.2804718017578125	0.057220458984375
349	0.24214118366809595	-1.2806243896484375	0.0569000244140625
350	0.24258308521752103	-1.27996826171875	0.0569915771484375
351	0.24303568447743562	-1.279754638671875	0.05700683593749999
352	0.24348090600597813	-1.27923583984375	0.0571441650390625
353	0.24394420297638217	-1.2794647216796875	0.0570526123046875
354	0.2443912689377677	-1.279022216796875	0.056976318359375
355	0.24484497485738807	-1.2788543701171875	0.057159423828125
356	0.24530236964269447	-1.278839111328125	0.0570831298828125
357	0.24576308440711828	-1.278961181640625	0.0571441650390625
358	0.24621347034762123	-1.278656005859375	0.057098388671875
359	0.2466502074850859	-1.2777862548828123	0.056915283203125
360	0.24709874899274584	-1.27740478515625	0.05711364746093751
361	0.2475506104795232	-1.2771606445312502	0.057037353515625
362	0.24800173419316335	-1.276885986328125	0.05708312988281249
363	0.2484668755964104	-1.2771911621093752	0.0571441650390625
364	0.24892353260857958	-1.2771453857421875	0.0570831298828125
365	0.2493801896207488	-1.2770996093749998	0.0570526123046875
366	0.24983241999409475	-1.2768707275390625	0.0571746826171875
367	0.25028907700626396	-1.276824951171875	0.0570831298828125
368	0.2507398318333355	-1.2765350341796875	0.05700683593749999
369	0.2511968577320733	-1.2765045166015625	0.057159423828125
370	0.2516527769711053	-1.27642822265625	0.0571136474609375
371	0.25211017175641165	-1.2764129638671875	0.05711364746093751
372	0.25256387767603206	-1.2762451171874998	0.057342529296875
373	0.2530146325031036	-1.2759552001953125	0.05706787109375
374	0.2534657562167438	-1.2756805419921875	0.05735778808593751
375	0.2539161421572467	-1.2753753662109375	0.0570220947265625
376	0.2543698480768671	-1.27520751953125	0.057159423828125
377	0.2548191273576642	-1.2748565673828127	0.057037353515625
378	0.2552665622056184	-1.2744293212890627	0.05700683593749999
379	0.25572395699092476	-1.2744140625000002	0.057098388671875
380	0.2561732362717219	-1.2740631103515627	0.0572357177734375
381	0.2566302621704597	-1.2740325927734377	0.057220458984375
382	0.25708581252292306	-1.2739410400390623	0.0571441650390625
383	0.25754025621568066	-1.2738037109375	0.05712890625
